# xPDFsuite Configuration #
[PDF]
wavelength = 0.1
dataformat = Qnm
inputfile = JBNP33L_20180812-162201_05b4b9_0001.chi
backgroundfile = kapton_Jon_20180812-170509_77fbc8_0001.chi
mode = xray
bgscale = 1.0
composition = TiO2
outputtype = gr
qmaxinst = 24.0
qmin = 0.1
qmax = 22.0
rmax = 100.0
rmin = 0.0
rstep = 0.01
rpoly = 0.9

[Misc]
inputdir = /home/soham/Documents/CurrentClean/DeRoo_titaniaZirconia/collateChi
savedir = /home/soham/Documents/CurrentClean/DeRoo_titaniaZirconia/collateChi/gr_22
backgroundfilefull = /home/soham/Documents/CurrentClean/DeRoo_titaniaZirconia/collateChi/kapton_Jon_20180812-170509_77fbc8_0001.chi

#### start data
#S 1
#L r($\AA$)  G($\AA^{-2}$)
0 0
0.01 -0.00457916
0.02 -0.00891683
0.03 -0.0127965
0.04 -0.0160245
0.05 -0.0184399
0.06 -0.019922
0.07 -0.0203965
0.08 -0.0198392
0.09 -0.018277
0.1 -0.0157869
0.11 -0.0124922
0.12 -0.00855612
0.13 -0.00417451
0.14 0.000434287
0.15 0.00503991
0.16 0.00939357
0.17 0.0132662
0.18 0.0164686
0.19 0.0188405
0.2 0.0202625
0.21 0.0206621
0.22 0.0200177
0.23 0.0183591
0.24 0.0157661
0.25 0.0123647
0.26 0.00832017
0.27 0.00382905
0.28 -0.000891166
0.29 -0.00561325
0.3 -0.010112
0.31 -0.0141637
0.32 -0.01756
0.33 -0.0201739
0.34 -0.021906
0.35 -0.0227075
0.36 -0.022583
0.37 -0.0215914
0.38 -0.0198424
0.39 -0.0174916
0.4 -0.0147323
0.41 -0.0117852
0.42 -0.008886
0.43 -0.00627215
0.44 -0.00416856
0.45 -0.00277352
0.46 -0.00224639
0.47 -0.0027497
0.48 -0.00426696
0.49 -0.00676111
0.5 -0.010121
0.51 -0.0141611
0.52 -0.0186252
0.53 -0.0231936
0.54 -0.027493
0.55 -0.0311109
0.56 -0.033611
0.57 -0.0345522
0.58 -0.0335075
0.59 -0.0300843
0.6 -0.0239441
0.61 -0.014821
0.62 -0.00240852
0.63 0.0132913
0.64 0.032165
0.65 0.0540355
0.66 0.0786052
0.67 0.10546
0.68 0.134077
0.69 0.16384
0.7 0.194053
0.71 0.223962
0.72 0.252781
0.73 0.279715
0.74 0.303983
0.75 0.324853
0.76 0.34166
0.77 0.353724
0.78 0.360487
0.79 0.361816
0.8 0.357555
0.81 0.347698
0.82 0.332395
0.83 0.311946
0.84 0.286791
0.85 0.257498
0.86 0.224742
0.87 0.189283
0.88 0.151941
0.89 0.113569
0.9 0.0750211
0.91 0.0371282
0.92 0.000672368
0.93 -0.0334995
0.94 -0.0648918
0.95 -0.0930479
0.96 -0.117647
0.97 -0.138513
0.98 -0.155614
0.99 -0.169065
1 -0.179115
1.01 -0.186135
1.02 -0.190604
1.03 -0.193082
1.04 -0.194193
1.05 -0.194594
1.06 -0.194952
1.07 -0.195914
1.08 -0.198158
1.09 -0.202218
1.1 -0.208507
1.11 -0.217351
1.12 -0.228954
1.13 -0.243397
1.14 -0.260628
1.15 -0.280472
1.16 -0.302633
1.17 -0.326706
1.18 -0.352197
1.19 -0.378534
1.2 -0.405097
1.21 -0.431231
1.22 -0.456278
1.23 -0.479544
1.24 -0.500353
1.25 -0.518238
1.26 -0.532752
1.27 -0.543541
1.28 -0.550362
1.29 -0.553086
1.3 -0.551704
1.31 -0.546321
1.32 -0.537159
1.33 -0.524544
1.34 -0.508896
1.35 -0.490714
1.36 -0.470562
1.37 -0.44905
1.38 -0.426813
1.39 -0.404531
1.4 -0.382869
1.41 -0.362425
1.42 -0.343748
1.43 -0.327324
1.44 -0.313564
1.45 -0.302793
1.46 -0.295241
1.47 -0.291042
1.48 -0.290227
1.49 -0.292726
1.5 -0.298369
1.51 -0.306891
1.52 -0.317935
1.53 -0.331063
1.54 -0.345803
1.55 -0.361492
1.56 -0.377466
1.57 -0.393045
1.58 -0.407521
1.59 -0.420167
1.6 -0.430251
1.61 -0.437049
1.62 -0.439857
1.63 -0.438004
1.64 -0.430862
1.65 -0.417862
1.66 -0.398504
1.67 -0.372367
1.68 -0.339125
1.69 -0.298379
1.7 -0.249938
1.71 -0.194083
1.72 -0.130971
1.73 -0.0608951
1.74 0.0157163
1.75 0.098298
1.76 0.18615
1.77 0.278443
1.78 0.374226
1.79 0.472439
1.8 0.571928
1.81 0.671458
1.82 0.769737
1.83 0.865439
1.84 0.9572
1.85 1.04336
1.86 1.12288
1.87 1.19453
1.88 1.25724
1.89 1.31003
1.9 1.35207
1.91 1.3827
1.92 1.40146
1.93 1.40806
1.94 1.40244
1.95 1.38473
1.96 1.35527
1.97 1.3146
1.98 1.26344
1.99 1.20269
2 1.13306
2.01 1.05606
2.02 0.973074
2.03 0.885433
2.04 0.794491
2.05 0.701597
2.06 0.608067
2.07 0.515153
2.08 0.424013
2.09 0.335695
2.1 0.251109
2.11 0.171018
2.12 0.0960258
2.13 0.0265725
2.14 -0.0370669
2.15 -0.0946312
2.16 -0.146119
2.17 -0.191918
2.18 -0.232335
2.19 -0.267772
2.2 -0.298707
2.21 -0.325667
2.22 -0.349209
2.23 -0.369893
2.24 -0.388265
2.25 -0.404837
2.26 -0.420068
2.27 -0.434357
2.28 -0.448026
2.29 -0.461322
2.3 -0.474407
2.31 -0.487363
2.32 -0.500198
2.33 -0.512849
2.34 -0.525197
2.35 -0.537084
2.36 -0.548321
2.37 -0.558711
2.38 -0.568053
2.39 -0.576165
2.4 -0.582887
2.41 -0.588099
2.42 -0.591725
2.43 -0.593741
2.44 -0.594176
2.45 -0.593113
2.46 -0.590636
2.47 -0.58699
2.48 -0.582425
2.49 -0.577204
2.5 -0.571614
2.51 -0.565953
2.52 -0.560519
2.53 -0.555601
2.54 -0.551467
2.55 -0.548358
2.56 -0.546475
2.57 -0.545976
2.58 -0.546974
2.59 -0.549527
2.6 -0.553644
2.61 -0.559318
2.62 -0.566455
2.63 -0.574863
2.64 -0.584357
2.65 -0.59472
2.66 -0.605707
2.67 -0.61705
2.68 -0.628467
2.69 -0.639666
2.7 -0.650349
2.71 -0.660219
2.72 -0.668984
2.73 -0.676356
2.74 -0.682059
2.75 -0.685825
2.76 -0.687384
2.77 -0.686373
2.78 -0.682679
2.79 -0.676091
2.8 -0.666415
2.81 -0.653477
2.82 -0.63712
2.83 -0.617213
2.84 -0.593653
2.85 -0.56637
2.86 -0.53533
2.87 -0.500543
2.88 -0.462068
2.89 -0.420018
2.9 -0.374566
2.91 -0.325948
2.92 -0.274353
2.93 -0.220281
2.94 -0.164219
2.95 -0.106684
2.96 -0.0482572
2.97 0.0104245
2.98 0.0686773
2.99 0.125781
3 0.180991
3.01 0.233554
3.02 0.282719
3.03 0.327761
3.04 0.367988
3.05 0.402764
3.06 0.43152
3.07 0.453587
3.08 0.468524
3.09 0.476264
3.1 0.476651
3.11 0.469646
3.12 0.455326
3.13 0.433885
3.14 0.405622
3.15 0.370941
3.16 0.330335
3.17 0.284374
3.18 0.23369
3.19 0.178966
3.2 0.120912
3.21 0.0602586
3.22 -0.00227494
3.23 -0.0659754
3.24 -0.130067
3.25 -0.193901
3.26 -0.25687
3.27 -0.318416
3.28 -0.378028
3.29 -0.435247
3.3 -0.489655
3.31 -0.540877
3.32 -0.588568
3.33 -0.632412
3.34 -0.672105
3.35 -0.707355
3.36 -0.73787
3.37 -0.763352
3.38 -0.783227
3.39 -0.79735
3.4 -0.805446
3.41 -0.807175
3.42 -0.8022
3.43 -0.790188
3.44 -0.770832
3.45 -0.743857
3.46 -0.709041
3.47 -0.666227
3.48 -0.615345
3.49 -0.556426
3.5 -0.489615
3.51 -0.415189
3.52 -0.333563
3.53 -0.245136
3.54 -0.150681
3.55 -0.051278
3.56 0.0520472
3.57 0.158141
3.58 0.265735
3.59 0.373472
3.6 0.479927
3.61 0.583633
3.62 0.683118
3.63 0.776932
3.64 0.863682
3.65 0.942064
3.66 1.01089
3.67 1.06913
3.68 1.1158
3.69 1.14973
3.7 1.17107
3.71 1.1796
3.72 1.17538
3.73 1.15864
3.74 1.12987
3.75 1.08976
3.76 1.03916
3.77 0.979118
3.78 0.910797
3.79 0.835477
3.8 0.754512
3.81 0.669298
3.82 0.581243
3.83 0.491736
3.84 0.402168
3.85 0.313873
3.86 0.227993
3.87 0.14555
3.88 0.0674291
3.89 -0.00562598
3.9 -0.0730199
3.91 -0.134303
3.92 -0.189168
3.93 -0.237439
3.94 -0.27906
3.95 -0.314081
3.96 -0.342641
3.97 -0.36495
3.98 -0.381273
3.99 -0.391752
4 -0.396742
4.01 -0.39673
4.02 -0.392037
4.03 -0.382967
4.04 -0.369804
4.05 -0.352807
4.06 -0.332211
4.07 -0.308234
4.08 -0.281072
4.09 -0.250919
4.1 -0.217963
4.11 -0.182405
4.12 -0.144461
4.13 -0.104374
4.14 -0.0624067
4.15 -0.0188434
4.16 0.025859
4.17 0.0712841
4.18 0.11697
4.19 0.162413
4.2 0.207073
4.21 0.250386
4.22 0.291768
4.23 0.330634
4.24 0.36641
4.25 0.398543
4.26 0.426525
4.27 0.449897
4.28 0.468271
4.29 0.481339
4.3 0.488601
4.31 0.490168
4.32 0.486086
4.33 0.476458
4.34 0.461497
4.35 0.441515
4.36 0.416917
4.37 0.388197
4.38 0.355922
4.39 0.32072
4.4 0.283264
4.41 0.244262
4.42 0.204433
4.43 0.164499
4.44 0.125164
4.45 0.0871614
4.46 0.0511629
4.47 0.017699
4.48 -0.0127302
4.49 -0.0396976
4.5 -0.0628545
4.51 -0.0819333
4.52 -0.0967489
4.53 -0.107198
4.54 -0.113255
4.55 -0.114971
4.56 -0.112468
4.57 -0.105931
4.58 -0.0956051
4.59 -0.0817855
4.6 -0.0647805
4.61 -0.0449007
4.62 -0.0227031
4.63 0.00137531
4.64 0.0268799
4.65 0.0533443
4.66 0.0802958
4.67 0.10726
4.68 0.133767
4.69 0.159355
4.7 0.183577
4.71 0.206004
4.72 0.22623
4.73 0.243882
4.74 0.25862
4.75 0.270146
4.76 0.278024
4.77 0.282201
4.78 0.28257
4.79 0.279067
4.8 0.271695
4.81 0.260526
4.82 0.245711
4.83 0.227469
4.84 0.206097
4.85 0.181959
4.86 0.155487
4.87 0.127172
4.88 0.0975539
4.89 0.0672163
4.9 0.036771
4.91 0.00688331
4.92 -0.0217698
4.93 -0.0485878
4.94 -0.0729852
4.95 -0.0944205
4.96 -0.112411
4.97 -0.126544
4.98 -0.136489
4.99 -0.142008
5 -0.142962
5.01 -0.139312
5.02 -0.131127
5.03 -0.118579
5.04 -0.101941
5.05 -0.0815804
5.06 -0.0579143
5.07 -0.0314228
5.08 -0.00284758
5.09 0.0271701
5.1 0.0579602
5.11 0.0888402
5.12 0.119131
5.13 0.148173
5.14 0.17534
5.15 0.200053
5.16 0.221794
5.17 0.240111
5.18 0.25463
5.19 0.265058
5.2 0.271187
5.21 0.272894
5.22 0.269912
5.23 0.262494
5.24 0.250792
5.25 0.234999
5.26 0.215364
5.27 0.192184
5.28 0.165798
5.29 0.136573
5.3 0.104897
5.31 0.0711718
5.32 0.0358039
5.33 -0.000802818
5.34 -0.0382522
5.35 -0.0761604
5.36 -0.11416
5.37 -0.151881
5.38 -0.188974
5.39 -0.225142
5.4 -0.260102
5.41 -0.293592
5.42 -0.325372
5.43 -0.355224
5.44 -0.38295
5.45 -0.408375
5.46 -0.431344
5.47 -0.45173
5.48 -0.469428
5.49 -0.484363
5.5 -0.496491
5.51 -0.505801
5.52 -0.51228
5.53 -0.515919
5.54 -0.516951
5.55 -0.51553
5.56 -0.511854
5.57 -0.506165
5.58 -0.498741
5.59 -0.489902
5.6 -0.48
5.61 -0.469412
5.62 -0.458537
5.63 -0.447787
5.64 -0.437572
5.65 -0.428299
5.66 -0.420355
5.67 -0.4141
5.68 -0.409975
5.69 -0.408167
5.7 -0.408872
5.71 -0.412232
5.72 -0.41832
5.73 -0.427133
5.74 -0.438595
5.75 -0.452554
5.76 -0.468789
5.77 -0.48701
5.78 -0.506869
5.79 -0.527968
5.8 -0.549866
5.81 -0.572097
5.82 -0.594175
5.83 -0.615574
5.84 -0.635786
5.85 -0.654373
5.86 -0.670916
5.87 -0.685043
5.88 -0.696431
5.89 -0.704821
5.9 -0.710016
5.91 -0.711885
5.92 -0.710366
5.93 -0.705461
5.94 -0.697232
5.95 -0.685796
5.96 -0.67132
5.97 -0.654006
5.98 -0.634052
5.99 -0.611662
6 -0.587205
6.01 -0.560935
6.02 -0.533093
6.03 -0.503896
6.04 -0.473531
6.05 -0.442149
6.06 -0.409863
6.07 -0.37674
6.08 -0.342806
6.09 -0.308045
6.1 -0.272403
6.11 -0.235792
6.12 -0.198096
6.13 -0.159179
6.14 -0.118812
6.15 -0.0769054
6.16 -0.033323
6.17 0.0120592
6.18 0.0593392
6.19 0.10858
6.2 0.159804
6.21 0.212985
6.22 0.268043
6.23 0.324843
6.24 0.383193
6.25 0.442841
6.26 0.503478
6.27 0.56474
6.28 0.626213
6.29 0.687411
6.3 0.747798
6.31 0.806847
6.32 0.864003
6.33 0.918701
6.34 0.97037
6.35 1.01845
6.36 1.06239
6.37 1.10167
6.38 1.13581
6.39 1.16438
6.4 1.18697
6.41 1.20327
6.42 1.21301
6.43 1.21601
6.44 1.21204
6.45 1.2009
6.46 1.18294
6.47 1.1583
6.48 1.12721
6.49 1.08999
6.5 1.04702
6.51 0.99875
6.52 0.94571
6.53 0.88848
6.54 0.827689
6.55 0.764004
6.56 0.698122
6.57 0.630757
6.58 0.562626
6.59 0.494439
6.6 0.426955
6.61 0.360828
6.62 0.29666
6.63 0.234994
6.64 0.176308
6.65 0.121004
6.66 0.0694011
6.67 0.0217329
6.68 -0.0218577
6.69 -0.0613173
6.7 -0.0966806
6.71 -0.128067
6.72 -0.155673
6.73 -0.179766
6.74 -0.200673
6.75 -0.218684
6.76 -0.234285
6.77 -0.247973
6.78 -0.260188
6.79 -0.271366
6.8 -0.281919
6.81 -0.292226
6.82 -0.302621
6.83 -0.313381
6.84 -0.324725
6.85 -0.336802
6.86 -0.349688
6.87 -0.363393
6.88 -0.377853
6.89 -0.392942
6.9 -0.408477
6.91 -0.424206
6.92 -0.439829
6.93 -0.455039
6.94 -0.469512
6.95 -0.482921
6.96 -0.494949
6.97 -0.505302
6.98 -0.513716
6.99 -0.519966
7 -0.523876
7.01 -0.525324
7.02 -0.524242
7.03 -0.520617
7.04 -0.514494
7.05 -0.505965
7.06 -0.495052
7.07 -0.482069
7.08 -0.467227
7.09 -0.450751
7.1 -0.432873
7.11 -0.413821
7.12 -0.393809
7.13 -0.37303
7.14 -0.351647
7.15 -0.329784
7.16 -0.307528
7.17 -0.284924
7.18 -0.261973
7.19 -0.238639
7.2 -0.214849
7.21 -0.190478
7.22 -0.165404
7.23 -0.139506
7.24 -0.112652
7.25 -0.0847205
7.26 -0.0556141
7.27 -0.0252654
7.28 0.00635274
7.29 0.0392198
7.3 0.0732627
7.31 0.108353
7.32 0.144305
7.33 0.180879
7.34 0.217783
7.35 0.254683
7.36 0.291192
7.37 0.326866
7.38 0.361309
7.39 0.394111
7.4 0.424875
7.41 0.453232
7.42 0.478852
7.43 0.501458
7.44 0.520831
7.45 0.536821
7.46 0.54935
7.47 0.558417
7.48 0.564094
7.49 0.566523
7.5 0.565915
7.51 0.562534
7.52 0.556572
7.53 0.548533
7.54 0.538782
7.55 0.527686
7.56 0.515597
7.57 0.502838
7.58 0.489688
7.59 0.476376
7.6 0.463061
7.61 0.449834
7.62 0.436706
7.63 0.423611
7.64 0.410405
7.65 0.396871
7.66 0.382728
7.67 0.367588
7.68 0.351062
7.69 0.332762
7.7 0.312273
7.71 0.289193
7.72 0.263146
7.73 0.233801
7.74 0.200891
7.75 0.164222
7.76 0.123689
7.77 0.0792848
7.78 0.031107
7.79 -0.0206394
7.8 -0.0756408
7.81 -0.133479
7.82 -0.193669
7.83 -0.255587
7.84 -0.318451
7.85 -0.38151
7.86 -0.443968
7.87 -0.505006
7.88 -0.563797
7.89 -0.619528
7.9 -0.671416
7.91 -0.718728
7.92 -0.760789
7.93 -0.797007
7.94 -0.826872
7.95 -0.849974
7.96 -0.866005
7.97 -0.874755
7.98 -0.875715
7.99 -0.869322
8 -0.855697
8.01 -0.83505
8.02 -0.807675
8.03 -0.773937
8.04 -0.734263
8.05 -0.689129
8.06 -0.639049
8.07 -0.584565
8.08 -0.526236
8.09 -0.464629
8.1 -0.400308
8.11 -0.333832
8.12 -0.265745
8.13 -0.19655
8.14 -0.126813
8.15 -0.0570314
8.16 0.0123351
8.17 0.0808508
8.18 0.1481
8.19 0.213689
8.2 0.277242
8.21 0.338399
8.22 0.39682
8.23 0.452181
8.24 0.504177
8.25 0.552521
8.26 0.596948
8.27 0.637219
8.28 0.673026
8.29 0.704106
8.3 0.730484
8.31 0.752064
8.32 0.768797
8.33 0.780681
8.34 0.787768
8.35 0.790162
8.36 0.788023
8.37 0.78156
8.38 0.771038
8.39 0.756762
8.4 0.739084
8.41 0.718386
8.42 0.695077
8.43 0.669579
8.44 0.642255
8.45 0.61365
8.46 0.584171
8.47 0.554198
8.48 0.524074
8.49 0.494097
8.5 0.464508
8.51 0.435491
8.52 0.407167
8.53 0.379592
8.54 0.352757
8.55 0.326595
8.56 0.30098
8.57 0.275737
8.58 0.250652
8.59 0.225469
8.6 0.199909
8.61 0.173711
8.62 0.146621
8.63 0.118411
8.64 0.0888866
8.65 0.0579048
8.66 0.0253781
8.67 -0.00871465
8.68 -0.044323
8.69 -0.0813214
8.7 -0.119509
8.71 -0.158609
8.72 -0.198279
8.73 -0.238109
8.74 -0.277622
8.75 -0.316263
8.76 -0.353512
8.77 -0.388823
8.78 -0.421657
8.79 -0.451493
8.8 -0.477846
8.81 -0.500282
8.82 -0.51843
8.83 -0.531993
8.84 -0.540759
8.85 -0.544607
8.86 -0.543515
8.87 -0.537553
8.88 -0.526892
8.89 -0.51178
8.9 -0.492379
8.91 -0.469361
8.92 -0.44322
8.93 -0.414496
8.94 -0.383763
8.95 -0.35161
8.96 -0.318626
8.97 -0.285384
8.98 -0.252426
8.99 -0.220247
9 -0.189285
9.01 -0.159909
9.02 -0.132412
9.03 -0.107005
9.04 -0.0838122
9.05 -0.0629698
9.06 -0.0443674
9.07 -0.0278432
9.08 -0.0132048
9.09 -0.00020466
9.1 0.0114472
9.11 0.0220699
9.12 0.0319968
9.13 0.041561
9.14 0.0510803
9.15 0.0608435
9.16 0.0710974
9.17 0.0820354
9.18 0.0937882
9.19 0.106416
9.2 0.119924
9.21 0.134216
9.22 0.149084
9.23 0.164277
9.24 0.179479
9.25 0.194316
9.26 0.208367
9.27 0.221176
9.28 0.232268
9.29 0.241157
9.3 0.247368
9.31 0.250449
9.32 0.24998
9.33 0.245596
9.34 0.23699
9.35 0.223908
9.36 0.205967
9.37 0.183353
9.38 0.156103
9.39 0.124348
9.4 0.0883062
9.41 0.0482865
9.42 0.00467729
9.43 -0.0420587
9.44 -0.091394
9.45 -0.142747
9.46 -0.195492
9.47 -0.248975
9.48 -0.302521
9.49 -0.355451
9.5 -0.407092
9.51 -0.456677
9.52 -0.503596
9.53 -0.547296
9.54 -0.587242
9.55 -0.622953
9.56 -0.654009
9.57 -0.680051
9.58 -0.700788
9.59 -0.715994
9.6 -0.72551
9.61 -0.729246
9.62 -0.727174
9.63 -0.719327
9.64 -0.705802
9.65 -0.686747
9.66 -0.662242
9.67 -0.632518
9.68 -0.598054
9.69 -0.559198
9.7 -0.516333
9.71 -0.469879
9.72 -0.420285
9.73 -0.36803
9.74 -0.313618
9.75 -0.257573
9.76 -0.200438
9.77 -0.142765
9.78 -0.0851187
9.79 -0.0280623
9.8 0.0278427
9.81 0.0820322
9.82 0.133836
9.83 0.18284
9.84 0.228573
9.85 0.270603
9.86 0.308548
9.87 0.342084
9.88 0.370947
9.89 0.394944
9.9 0.413958
9.91 0.427947
9.92 0.43695
9.93 0.441087
9.94 0.440559
9.95 0.435641
9.96 0.42668
9.97 0.413949
9.98 0.398063
9.99 0.379589
10 0.359077
10.01 0.337096
10.02 0.31422
10.03 0.291013
10.04 0.268018
10.05 0.245741
10.06 0.224639
10.07 0.20511
10.08 0.187486
10.09 0.172018
10.1 0.158879
10.11 0.148158
10.12 0.139919
10.13 0.134087
10.14 0.130419
10.15 0.128681
10.16 0.128581
10.17 0.129783
10.18 0.131913
10.19 0.13458
10.2 0.137388
10.21 0.139946
10.22 0.141889
10.23 0.142887
10.24 0.142656
10.25 0.14097
10.26 0.137667
10.27 0.132643
10.28 0.125806
10.29 0.117309
10.3 0.107288
10.31 0.0959429
10.32 0.0835322
10.33 0.070362
10.34 0.0567756
10.35 0.0431415
10.36 0.0298403
10.37 0.0172518
10.38 0.00574166
10.39 -0.0043508
10.4 -0.0127237
10.41 -0.0191228
10.42 -0.0233494
10.43 -0.0251576
10.44 -0.0245561
10.45 -0.0215793
10.46 -0.0163003
10.47 -0.00885534
10.48 0.000561188
10.49 0.0117036
10.5 0.0242829
10.51 0.0379768
10.52 0.0524385
10.53 0.0673081
10.54 0.0822219
10.55 0.0968226
10.56 0.110768
10.57 0.123738
10.58 0.135402
10.59 0.145481
10.6 0.153802
10.61 0.160191
10.62 0.164516
10.63 0.166681
10.64 0.166623
10.65 0.164314
10.66 0.159749
10.67 0.152946
10.68 0.14394
10.69 0.132777
10.7 0.119512
10.71 0.104202
10.72 0.0869069
10.73 0.0676711
10.74 0.0464795
10.75 0.0234874
10.76 -0.00124219
10.77 -0.02764
10.78 -0.0556259
10.79 -0.0851048
10.8 -0.115961
10.81 -0.148054
10.82 -0.181212
10.83 -0.215232
10.84 -0.249871
10.85 -0.284847
10.86 -0.319842
10.87 -0.354496
10.88 -0.388415
10.89 -0.4211
10.9 -0.452114
10.91 -0.481002
10.92 -0.507294
10.93 -0.530523
10.94 -0.55024
10.95 -0.566026
10.96 -0.577501
10.97 -0.584336
10.98 -0.586268
10.99 -0.583101
11 -0.574722
11.01 -0.561099
11.02 -0.542291
11.03 -0.518446
11.04 -0.489674
11.05 -0.456319
11.06 -0.418934
11.07 -0.377996
11.08 -0.334042
11.09 -0.287653
11.1 -0.239444
11.11 -0.190045
11.12 -0.140095
11.13 -0.0902212
11.14 -0.0410261
11.15 0.00692165
11.16 0.053101
11.17 0.0970469
11.18 0.138358
11.19 0.176671
11.2 0.211586
11.21 0.243069
11.22 0.271014
11.23 0.295379
11.24 0.316182
11.25 0.333494
11.26 0.347432
11.27 0.358149
11.28 0.365824
11.29 0.370651
11.3 0.372837
11.31 0.372584
11.32 0.37009
11.33 0.365541
11.34 0.359104
11.35 0.35085
11.36 0.34098
11.37 0.329616
11.38 0.316844
11.39 0.302739
11.4 0.287366
11.41 0.270784
11.42 0.253054
11.43 0.234246
11.44 0.21444
11.45 0.193732
11.46 0.172243
11.47 0.150112
11.48 0.127508
11.49 0.104621
11.5 0.0816721
11.51 0.0589187
11.52 0.0366166
11.53 0.0150307
11.54 -0.00557069
11.55 -0.0249228
11.56 -0.042772
11.57 -0.0588837
11.58 -0.0730489
11.59 -0.0850917
11.6 -0.0948743
11.61 -0.102302
11.62 -0.107327
11.63 -0.109948
11.64 -0.110212
11.65 -0.108191
11.66 -0.103953
11.67 -0.0977858
11.68 -0.0898976
11.69 -0.0805217
11.7 -0.0699056
11.71 -0.0583031
11.72 -0.0459656
11.73 -0.0331335
11.74 -0.0200288
11.75 -0.00684784
11.76 0.00624364
11.77 0.0191151
11.78 0.0316737
11.79 0.0438645
11.8 0.0556701
11.81 0.0670918
11.82 0.0781969
11.83 0.0890626
11.84 0.0997788
11.85 0.110443
11.86 0.121151
11.87 0.131989
11.88 0.143027
11.89 0.154306
11.9 0.165834
11.91 0.177583
11.92 0.189479
11.93 0.201404
11.94 0.213193
11.95 0.224636
11.96 0.235454
11.97 0.245337
11.98 0.253977
11.99 0.261033
12 0.266152
12.01 0.268981
12.02 0.269177
12.03 0.266419
12.04 0.260418
12.05 0.250926
12.06 0.237747
12.07 0.220742
12.08 0.199839
12.09 0.175031
12.1 0.146386
12.11 0.114001
12.12 0.077982
12.13 0.0387843
12.14 -0.00324577
12.15 -0.047708
12.16 -0.0941562
12.17 -0.142107
12.18 -0.19105
12.19 -0.240457
12.2 -0.289791
12.21 -0.338521
12.22 -0.386122
12.23 -0.432092
12.24 -0.475954
12.25 -0.517265
12.26 -0.555618
12.27 -0.590464
12.28 -0.621611
12.29 -0.648812
12.3 -0.671841
12.31 -0.690514
12.32 -0.704688
12.33 -0.71426
12.34 -0.71916
12.35 -0.719353
12.36 -0.714831
12.37 -0.705615
12.38 -0.691751
12.39 -0.673307
12.4 -0.650373
12.41 -0.623061
12.42 -0.591375
12.43 -0.555507
12.44 -0.515749
12.45 -0.472309
12.46 -0.425419
12.47 -0.37534
12.48 -0.32236
12.49 -0.266801
12.5 -0.209011
12.51 -0.149368
12.52 -0.0882821
12.53 -0.0261851
12.54 0.0364664
12.55 0.0991974
12.56 0.16152
12.57 0.222921
12.58 0.282827
12.59 0.340794
12.6 0.396353
12.61 0.449059
12.62 0.498501
12.63 0.544308
12.64 0.586156
12.65 0.623773
12.66 0.656948
12.67 0.685532
12.68 0.70944
12.69 0.728653
12.7 0.743217
12.71 0.753243
12.72 0.758899
12.73 0.76021
12.74 0.757655
12.75 0.751578
12.76 0.742327
12.77 0.730273
12.78 0.715798
12.79 0.699289
12.8 0.681125
12.81 0.661671
12.82 0.641271
12.83 0.620238
12.84 0.598849
12.85 0.577342
12.86 0.555912
12.87 0.534709
12.88 0.513849
12.89 0.493392
12.9 0.473339
12.91 0.453665
12.92 0.43431
12.93 0.415187
12.94 0.396187
12.95 0.377185
12.96 0.358049
12.97 0.338644
12.98 0.318838
12.99 0.29851
13 0.277554
13.01 0.255884
13.02 0.233437
13.03 0.210164
13.04 0.186031
13.05 0.161098
13.06 0.135415
13.07 0.109059
13.08 0.0821345
13.09 0.0547641
13.1 0.0270908
13.11 -0.000727728
